# E F F_stat F_up F_low NOE
# IceTop 
# 
# E = E in eV
# F = Flux in (m^2 sr s ev)^-1
# F_low = lower error
# F_up = upper error
# 
1778279410038920 5.90177220787271E-022 3.37404795114209E-025 4.09946826063765E-023 4.80801833037748E-023 3.97E+006
2238721138568340 3.23845604309448E-022 2.23341796075482E-025 2.33615518694954E-023 2.7337035839639E-023 2.78E+006
2818382931264130 1.7520685160356E-022 1.41925355693447E-025 1.30571327237971E-023 1.50795690424287E-023 1.91E+006
3349654391577930 1.095635421143E-022 1.19415304756731E-025 8.53819429010625E-024 9.70249351148437E-024 708089
3758374042884050 7.89969270254349E-023 1.06429002391963E-025 6.1196676375379E-024 7.34360116504548E-024 579534
4216965034285380 5.64861216688665E-023 7.11412111698571E-026 2.819563336032E-024 5.12216720422971E-024 469844
4731512589614370 4.04521802224772E-023 6.34046711951053E-026 3.29704290214547E-024 3.80428027170632E-024 379797
5308844442309400 2.85749566875629E-023 5.65094726846991E-026 2.35456136186246E-024 2.63710872528596E-024 302695
5956621435289550 2.03135286192849E-023 3.35760803624543E-026 1.67880401812272E-024 1.89704854047867E-024 242627
6683439175685620 1.4336930056698E-023 3.29171844340801E-026 1.20147723184393E-024 1.39000292451184E-024 192910
7498942093323940 1.00840890700199E-023 2.53369072111052E-026 8.58787802313251E-025 9.42799652539547E-025 152793
8413951416451280 7.03117917751796E-024 2.02045378664309E-025 6.14455651584988E-025 6.94085300823274E-025 119945
9440608762858570 4.88104116561729E-024 1.58888058776605E-026 4.33234773597542E-025 4.55479101826266E-025 93839
10592537251772200 3.40711570251613E-024 1.22727913917178E-026 3.04931663040374E-025 3.37973793710384E-025 73785
11885022274369400 2.35422360632342E-024 1.0096741699743E-026 2.12031575694604E-025 2.24652502819283E-025 57413
13335214321632500 1.64451800106617E-024 7.49894209332499E-027 1.41730005563842E-025 1.58227678169157E-025 45112
14962356560943500 1.14754650646538E-024 6.01509525811788E-027 1.0426165114071E-025 1.07603370728553E-025 35386
16788040181224600 8.02356907333624E-025 4.76529714823236E-027 7.08837950799563E-026 7.08837950799563E-026 27813
18836490894897100 5.77602275323342E-025 3.71619110961709E-027 4.88413688692532E-026 5.46810977557943E-026 22515
21134890398365500 4.04733586915669E-025 3.02816805735362E-027 3.67638528213087E-026 3.85145124794663E-026 17722
23713737056615500 2.88229560093449E-025 2.40367006954303E-027 2.43740578981731E-026 2.47957544016017E-026 14175
26607250597987200 2.06785739839509E-025 1.91677076187113E-027 1.8754286473994E-026 1.92052913591402E-026 11416
29853826189178600 1.4849017917867E-025 1.54084102012606E-027 1.28291763197452E-026 1.31641417589031E-026 9198
33496543915781600 1.05772106188267E-025 1.22400687375641E-026 9.25468611864601E-027 9.13527081388928E-027 7351
37583740428843600 7.59903077078557E-026 9.84468272125582E-028 5.98663138454745E-027 6.30591839172332E-027 5925
42169650342857200 5.5371576027201E-026 7.82553322868366E-028 5.07473973011607E-027 4.86131609660651E-027 4844
47315125896147000 4.06846640168564E-026 6.34046711951009E-028 3.17023355975504E-027 4.22697807967339E-027 3994
53088444423098300 2.69173454888095E-026 4.89748763267354E-028 2.58059925260105E-027 2.44874381633677E-027 2965
59566214352900400 1.92390940476848E-026 3.86124924168193E-028 1.67880401812258E-027 1.41019537522297E-027 2377
66834391756860700 1.47199663846572E-026 3.23186901716402E-028 1.08776332198067E-027 1.39598786713612E-027 2041
74989420933245600 1.01947713488886E-026 2.54702593543195E-028 1.21483802470079E-027 8.60121323745344E-028 1586
84139514164519700 7.378221827929E-027 2.04422383119167E-028 5.28883491209472E-028 7.03593318642714E-028 1288
94406087628592300 5.09077340320205E-027 1.59947312501771E-028 4.40649549673753E-028 3.92983132040774E-028 997
112201845430197000 3.15502832099343E-027 8.19950863083038E-029 2.91439056769732E-028 2.72722787068923E-028 1469
141253754462275000 1.63110708722106E-027 5.23879880444264E-029 1.42297102661212E-028 1.79110283449187E-028 956
177827941003891000 6.78745979504757E-028 3.03664315602791E-029 7.25420309495556E-029 5.51094498686547E-029 501
223872113856831000 3.30501189832502E-028 1.88500475887709E-029 2.82304030239412E-029 3.24292287901603E-029 307
281838293126439000 1.71871605744748E-028 1.21346179117885E-029 1.44409049418068E-029 1.55053451095076E-029 201
354813389233567000 6.31599614896379E-029 6.53864840053368E-030 6.36954542465781E-030 7.97602369547859E-030 93
446683592150947000 3.29092007369558E-029 4.20879574050863E-030 3.89537478110905E-030 2.79840142321052E-030 61
562341325190331000 1.67140481749564E-029 2.67631051210867E-030 4.43325056922718E-030 3.54944570243781E-030 39
707945784384105000 7.48927406159019E-030 1.59616742542379E-030 6.11628756821681E-031 8.418723765952E-031 22
891250938133744000 5.1377225022487E-030 1.17924139547137E-030 5.138844520703E-031 4.3983123408637E-031 19
1122018454301970000 1.07395738045116E-030 4.80384255654088E-031 4.27800450304197E-031 2.22812734533436E-031 5


