# E F F_up F_low NOE
# Telescope array Middle Drum hybrid analysis
#  
#  E = E in eV
#  F = Flux in (m^2 sr s ev)^-1
#  F_low = lower error
#  F_up = upper error
# 
2.82E+018 6.14339018413138E-032 8.26115773206777E-033 7.28195464838717E-033 101
3.54E+018 3.26205823822432E-032 4.38657347303560E-033 4.16734639792533E-033 85
4.45E+018 1.37288440290544E-032 2.34527081100460E-033 2.00317167274596E-033 59
5.59E+018 6.22143420708416E-033 1.21757656998766E-033 1.07271195440777E-033 41
7.02E+018 4.73137194518082E-033 9.85779462759714E-034 8.15791607171534E-034 41
8.90E+018 2.58217444604288E-033 5.70961405643400E-034 4.67580832220808E-034 36
1.12E+019 1.58967995477570E-033 4.13715589880010E-034 3.14944621190411E-034 31
1.41E+019 5.83179568101905E-034 2.33253130747870E-034 1.75283216343826E-034 13
1.77E+019 3.94844999875263E-034 1.87762697291880E-034 1.35560046553507E-034 10
2.24E+019 1.87832261578059E-034 1.04280917274762E-034 7.20281876416394E-035 8
2.79E+019 4.78090016555059E-035 4.88954136016543E-035 2.63069839542356E-035 3
3.51E+019 2.76253250755769E-035 3.71142456849138E-035 1.79717906040465E-035 2
5.59E+019 7.35668509581204E-036 1.00658484160230E-035 4.78592369026114E-036 2
1.39E+020 1.26471170278189E-036 3.01752389842991E-036 1.04850570851802E-036 1


